Frequency (Hz),Window1 Gain,Window2 Gain
0.0,1.3653460790930075e-18,1.3653460790930075e-18
0.5,1.4823624226223141e-18,1.4823624226223141e-18
1.0,1.6092751959212314e-18,1.6092751959212314e-18
1.5,1.7469099086083834e-18,1.7469099086083834e-18
2.0,1.8961599502782102e-18,1.8961599502782102e-18
2.5,2.057992089452821e-18,2.057992089452821e-18
3.0,2.233452411119675e-18,2.233452411119675e-18
3.5,2.4236727272708507e-18,2.4236727272708507e-18
4.0,2.6298774975141806e-18,2.6298774975141806e-18
4.5,2.8533912996826e-18,2.8533912996826e-18
5.0,3.0956468934403412e-18,3.0956468934403412e-18
5.5,3.3581939231883465e-18,3.3581939231883465e-18
6.0,3.642708310125591e-18,3.642708310125591e-18
6.5,3.95100238714327e-18,3.95100238714327e-18
7.0,4.285035834339283e-18,4.285035834339283e-18
7.5,4.646927477356946e-18,4.646927477356946e-18
8.0,5.03896801550222e-18,5.03896801550222e-18
8.5,5.463633751698576e-18,5.463633751698576e-18
9.0,5.923601401827644e-18,5.923601401827644e-18
9.5,6.421764066899735e-18,6.421764066899735e-18
10.0,6.961248457839028e-18,6.961248457839028e-18
10.5,7.545433469477249e-18,7.545433469477249e-18
11.0,8.177970207669353e-18,8.177970207669353e-18
11.5,8.862803581305956e-18,8.862803581305956e-18
12.0,9.604195579443817e-18,9.604195579443817e-18
12.5,1.0406750362848895e-17,1.0406750362848895e-17
13.0,1.127544130898953e-17,1.127544130898953e-17
13.5,1.2215640159984335e-17,1.2215640159984335e-17
14.0,1.323314843424541e-17,1.323314843424541e-17
14.5,1.433423127462665e-17,1.433423127462665e-17
15.0,1.552565391884101e-17,1.552565391884101e-17
15.5,1.6814720991819778e-17,1.6814720991819778e-17
16.0,1.8209318834618688e-17,1.8209318834618688e-17
16.5,1.971796110049937e-17,1.971796110049937e-17
17.0,2.1349837866015285e-17,2.1349837866015285e-17
17.5,2.311486852338922e-17,2.311486852338922e-17
18.0,2.502375874027686e-17,2.502375874027686e-17
18.5,2.7088061794256297e-17,2.7088061794256297e-17
19.0,2.932024461219341e-17,2.932024461219341e-17
19.5,3.1733758869077686e-17,3.1733758869077686e-17
20.0,3.434311752716837e-17,3.434311752716837e-17
20.5,3.716397722442561e-17,3.716397722442561e-17
21.0,4.0213226951370576e-17,4.0213226951370576e-17
21.5,4.3509083487893916e-17,4.3509083487893916e-17
22.0,4.707119410620967e-17,4.707119410620967e-17
22.5,5.0920747083368294e-17,5.0920747083368294e-17
23.0,5.508059060661531e-17,5.508059060661531e-17
23.5,5.95753606976313e-17,5.95753606976313e-17
24.0,6.443161882751311e-17,6.443161882751311e-17
24.5,6.967799994345654e-17,6.967799994345654e-17
25.0,7.534537168074251e-17,7.534537168074251e-17
25.5,8.146700558999264e-17,8.146700558999264e-17
26.0,8.807876127010707e-17,8.807876127010707e-17
26.5,9.521928436200156e-17,9.521928436200156e-17
27.0,1.0293021942761881e-16,1.0293021942761881e-16
27.5,1.1125643881294098e-16,1.1125643881294098e-16
28.0,1.202462886733014e-16,1.202462886733014e-16
28.5,1.2995185342444414e-16,1.2995185342444414e-16
29.0,1.4042923997405087e-16,1.4042923997405087e-16
29.5,1.5173888318608195e-16,1.5173888318608195e-16
30.0,1.6394587413487856e-16,1.6394587413487856e-16
30.5,1.7712031281790367e-16,1.7712031281790367e-16
31.0,1.9133768711583735e-16,1.9133768711583735e-16
31.5,2.0667927991700463e-16,2.0667927991700463e-16
32.0,2.2323260646032896e-16,2.2323260646032896e-16
32.5,2.410918840979773e-16,2.410918840979773e-16
33.0,2.6035853683592247e-16,2.6035853683592247e-16
33.5,2.811417371788935e-16,2.811417371788935e-16
34.0,3.0355898798605165e-16,3.0355898798605165e-16
34.5,3.2773674723610854e-16,3.2773674723610854e-16
35.0,3.5381109880656263e-16,3.5381109880656263e-16
35.5,3.81928472591703e-16,3.81928472591703e-16
36.0,4.1224641751957864e-16,4.1224641751957864e-16
36.5,4.449344312797921e-16,4.449344312797921e-16
37.0,4.801748508431284e-16,4.801748508431284e-16
37.5,5.181638081417704e-16,5.181638081417704e-16
38.0,5.591122555864892e-16,5.591122555864892e-16
38.5,6.032470664259214e-16,6.032470664259214e-16
39.0,6.508122153044737e-16,6.508122153044737e-16
39.5,7.020700447509805e-16,7.020700447509805e-16
40.0,7.573026237314322e-16,7.573026237314322e-16
40.5,8.168132048280044e-16,8.168132048280044e-16
41.0,8.809277870645657e-16,8.809277870645657e-16
41.5,9.499967918883755e-16,9.499967918883755e-16
42.0,1.0243968603402923e-15,1.0243968603402923e-15
42.5,1.1045327800041815e-15,1.1045327800041815e-15
43.0,1.190839550922556e-15,1.190839550922556e-15
43.5,1.2837846003021074e-15,1.2837846003021074e-15
44.0,1.3838701565127314e-15,1.3838701565127314e-15
44.5,1.491635793609582e-15,1.491635793609582e-15
45.0,1.6076611583826048e-15,1.6076611583826048e-15
45.5,1.7325688927651567e-15,1.7325688927651567e-15
46.0,1.867027765316348e-15,1.867027765316348e-15
46.5,2.0117560264339516e-15,2.0117560264339516e-15
47.0,2.1675250029604207e-15,2.1675250029604207e-15
47.5,2.3351629489175366e-15,2.3351629489175366e-15
48.0,2.515559170249972e-15,2.515559170249972e-15
48.5,2.7096684426794556e-15,2.7096684426794556e-15
49.0,2.9185157430742847e-15,2.9185157430742847e-15
49.5,3.1432013161283445e-15,3.1432013161283445e-15
50.0,3.3849060996260645e-15,3.3849060996260645e-15
50.5,3.644897533150613e-15,3.644897533150613e-15
51.0,3.924535776777544e-15,3.924535776777544e-15
51.5,4.225280368093895e-15,4.225280368093895e-15
52.0,4.548697347797832e-15,4.548697347797832e-15
52.5,4.8964668861773846e-15,4.8964668861773846e-15
53.0,5.2703914449422354e-15,5.2703914449422354e-15
53.5,5.672404511205126e-15,5.672404511205126e-15
54.0,6.104579942879268e-15,6.104579942879268e-15
54.5,6.569141967396401e-15,6.569141967396401e-15
55.0,7.068475878454426e-15,7.068475878454426e-15
55.5,7.605139478497589e-15,7.605139478497589e-15
56.0,8.181875317816485e-15,8.181875317816485e-15
56.5,8.801623784551095e-15,8.801623784551095e-15
57.0,9.467537103493614e-15,9.467537103493614e-15
57.5,1.0182994305439546e-14,1.0182994305439546e-14
58.0,1.0951617232934044e-14,1.0951617232934044e-14
58.5,1.1777287652626396e-14,1.1777287652626396e-14
59.0,1.2664165549094176e-14,1.2664165549094176e-14
59.5,1.361670867994459e-14,1.361670867994459e-14
60.0,1.463969347726977e-14,1.463969347726977e-14
60.5,1.573823738613632e-14,1.573823738613632e-14
61.0,1.6917822736757188e-14,1.6917822736757188e-14
61.5,1.8184322253342146e-14,1.8184322253342146e-14
62.0,1.954402630937825e-14,1.954402630937825e-14
62.5,2.100367204627948e-14,2.100367204627948e-14
63.0,2.2570474479992388e-14,2.2570474479992388e-14
63.5,2.4252159728274526e-14,2.4252159728274526e-14
64.0,2.6057000500018625e-14,2.6057000500018625e-14
64.5,2.7993853997192876e-14,2.7993853997192876e-14
65.0,3.0072202389752854e-14,3.0072202389752854e-14
65.5,3.230219603428581e-14,3.230219603428581e-14
66.0,3.4694699618208665e-14,3.4694699618208665e-14
66.5,3.7261341423101225e-14,3.7261341423101225e-14
67.0,4.001456591325792e-14,4.001456591325792e-14
67.5,4.296768986882575e-14,4.296768986882575e-14
68.0,4.6134962297023105e-14,4.6134962297023105e-14
68.5,4.953162836993441e-14,4.953162836993441e-14
69.0,5.317399765332857e-14,5.317399765332857e-14
69.5,5.707951690788514e-14,5.707951690788514e-14
70.0,6.126684776222016e-14,6.126684776222016e-14
70.5,6.575594957621365e-14,6.575594957621365e-14
71.0,7.056816783346189e-14,7.056816783346189e-14
71.5,7.572632842323756e-14,7.572632842323756e-14
72.0,8.125483819525055e-14,8.125483819525055e-14
72.5,8.717979219483186e-14,8.717979219483186e-14
73.0,9.352908801197421e-14,9.352908801197421e-14
73.5,1.0033254770509812e-13,1.0033254770509812e-13
74.0,1.0762204778949913e-13,1.0762204778949913e-13
74.5,1.1543165781134053e-13,1.1543165781134053e-13
75.0,1.2379778806082802e-13,1.2379778806082802e-13
75.5,1.3275934701301525e-13,1.3275934701301525e-13
76.0,1.4235790912159182e-13,1.4235790912159182e-13
76.5,1.5263789363019481e-13,1.5263789363019481e-13
77.0,1.6364675510733736e-13,1.6364675510733736e-13
77.5,1.7543518645513695e-13,1.7543518645513695e-13
78.0,1.880573351887932e-13,1.880573351887932e-13
78.5,2.0157103383335292e-13,2.0157103383335292e-13
79.0,2.1603804533690846e-13,2.1603804533690846e-13
79.5,2.315243244551408e-13,2.315243244551408e-13
80.0,2.4810029612125463e-13,2.4810029612125463e-13
80.5,2.658411518780519e-13,2.658411518780519e-13
81.0,2.8482716551532934e-13,2.8482716551532934e-13
81.5,3.051440291262638e-13,3.051440291262638e-13
82.0,3.268832108710654e-13,3.268832108710654e-13
82.5,3.501423358153316e-13,3.501423358153316e-13
83.0,3.750255912943642e-13,3.750255912943642e-13
83.5,4.01644158343527e-13,4.01644158343527e-13
84.0,4.3011667082884603e-13,4.3011667082884603e-13
84.5,4.605697040117557e-13,4.605697040117557e-13
85.0,4.931382943874459e-13,4.931382943874459e-13
85.5,5.279664927481573e-13,5.279664927481573e-13
86.0,5.65207952541144e-13,5.65207952541144e-13
86.5,6.050265557165075e-13,6.050265557165075e-13
87.0,6.47597078392802e-13,6.47597078392802e-13
87.5,6.931058988089552e-13,6.931058988089552e-13
88.0,7.417517501798154e-13,7.417517501798154e-13
88.5,7.937465212301748e-13,7.937465212301748e-13
89.0,8.493161073487568e-13,8.493161073487568e-13
89.5,9.08701315480179e-13,9.08701315480179e-13
90.0,9.721588260594333e-13,9.721588260594333e-13
90.5,1.0399622154910405e-12,1.0399622154910405e-12
91.0,1.1124030428839404e-12,1.1124030428839404e-12
91.5,1.1897920049741505e-12,1.1897920049741505e-12
92.0,1.272460163401154e-12,1.272460163401154e-12
92.5,1.3607602487510446e-12,1.3607602487510446e-12
93.0,1.45506804604108e-12,1.45506804604108e-12
93.5,1.5557838665967152e-12,1.5557838665967152e-12
94.0,1.6633341115644308e-12,1.6633341115644308e-12
94.5,1.7781729326128927e-12,1.7781729326128927e-12
95.0,1.9007839957014047e-12,1.9007839957014047e-12
95.5,2.031682354140093e-12,2.031682354140093e-12
96.0,2.1714164375310593e-12,2.1714164375310593e-12
96.5,2.3205701635653817e-12,2.3205701635653817e-12
97.0,2.4797651800583444e-12,2.4797651800583444e-12
97.5,2.649663245035643e-12,2.649663245035643e-12
98.0,2.8309687531382595e-12,2.8309687531382595e-12
98.5,3.024431417093967e-12,3.024431417093967e-12
99.0,3.2308491135108624e-12,3.2308491135108624e-12
99.5,3.4510709027842482e-12,3.4510709027842482e-12
100.0,3.686000233473805e-12,3.686000233473805e-12
100.5,3.936598342105931e-12,3.936598342105931e-12
101.0,4.203887859986384e-12,4.203887859986384e-12
101.5,4.488956639274706e-12,4.488956639274706e-12
102.0,4.792961811274695e-12,4.792961811274695e-12
102.5,5.1171340906369286e-12,5.1171340906369286e-12
103.0,5.462782339952465e-12,5.462782339952465e-12
103.5,5.831298410043155e-12,5.831298410043155e-12
104.0,6.224162272125342e-12,6.224162272125342e-12
104.5,6.64294745894358e-12,6.64294745894358e-12
105.0,7.089326832941471e-12,7.089326832941471e-12
105.5,7.565078700559654e-12,7.565078700559654e-12
106.0,8.072093292830245e-12,8.072093292830245e-12
106.5,8.612379633575607e-12,8.612379633575607e-12
107.0,9.188072817719109e-12,9.188072817719109e-12
107.5,9.801441723481253e-12,9.801441723481253e-12
108.0,1.0454897183568204e-11,1.0454897183568204e-11
108.5,1.1151000641866279e-11,1.1151000641866279e-11
109.0,1.1892473323638568e-11,1.1892473323638568e-11
109.5,1.2682205948781126e-11,1.2682205948781126e-11
110.0,1.3523269019342698e-11,1.3523269019342698e-11
110.5,1.4418923714247597e-11,1.4418923714247597e-11
111.0,1.537263342598659e-11,1.537263342598659e-11
111.5,1.6388075975968676e-11,1.6388075975968676e-11
112.0,1.746915654725197e-11,1.746915654725197e-11
112.5,1.862002137551014e-11,1.862002137551014e-11
113.0,1.984507224133815e-11,1.984507224133815e-11
113.5,2.1148981809372496e-11,2.1148981809372496e-11
114.0,2.253670986219215e-11,2.253670986219215e-11
114.5,2.401352047959492e-11,2.401352047959492e-11
115.0,2.5585000216606534e-11,2.5585000216606534e-11
115.5,2.725707733648987e-11,2.725707733648987e-11
116.0,2.9036042158084355e-11,2.9036042158084355e-11
116.5,3.0928568580026727e-11,3.0928568580026727e-11
117.0,3.294173684779722e-11,3.294173684779722e-11
117.5,3.508305763310154e-11,3.508305763310154e-11
118.0,3.7360497498852824e-11,3.7360497498852824e-11
118.5,3.9782505826966575e-11,3.9782505826966575e-11
119.0,4.2358043290332883e-11,4.2358043290332883e-11
119.5,4.509661195469838e-11,4.509661195469838e-11
120.0,4.800828710078611e-11,4.800828710078611e-11
120.5,5.110375086180222e-11,5.110375086180222e-11
121.0,5.4394327776566125e-11,5.4394327776566125e-11
121.5,5.789202236383038e-11,5.789202236383038e-11
122.0,6.160955882896819e-11,6.160955882896819e-11
122.5,6.556042302010509e-11,6.556042302010509e-11
123.0,6.975890675696538e-11,6.975890675696538e-11
123.5,7.422015466221562e-11,7.422015466221562e-11
124.0,7.896021363193057e-11,7.896021363193057e-11
124.5,8.399608508898783e-11,8.399608508898783e-11
125.0,8.934578017075801e-11,8.934578017075801e-11
125.5,9.502837801037542e-11,9.502837801037542e-11
126.0,1.0106408727920683e-10,1.0106408727920683e-10
126.5,1.0747431116688568e-10,1.0747431116688568e-10
127.0,1.1428171598445461e-10,1.1428171598445461e-10
127.5,1.2151030358580083e-10,1.2151030358580083e-10
128.0,1.291854878126937e-10,1.291854878126937e-10
128.5,1.3733417517935203e-10,1.3733417517935203e-10
129.0,1.4598485002361951e-10,1.4598485002361951e-10
129.5,1.5516766436352824e-10,1.5516766436352824e-10
130.0,1.6491453271030212e-10,1.6491453271030212e-10
130.5,1.7525923210174031e-10,1.7525923210174031e-10
131.0,1.8623750763342881e-10,1.8623750763342881e-10
131.5,1.9788718377940438e-10,1.9788718377940438e-10
132.0,2.102482818087674e-10,2.102482818087674e-10
132.5,2.233631436203166e-10,2.233631436203166e-10
133.0,2.372765623336576e-10,2.372765623336576e-10
133.5,2.5203591999234435e-10,2.5203591999234435e-10
134.0,2.676913327526208e-10,2.676913327526208e-10
134.5,2.842958039501345e-10,2.842958039501345e-10
135.0,3.019053854567856e-10,3.019053854567856e-10
135.5,3.2057934776051684e-10,3.2057934776051684e-10
136.0,3.403803592225984e-10,3.403803592225984e-10
136.5,3.613746749896286e-10,3.613746749896286e-10
137.0,3.836323360613323e-10,3.836323360613323e-10
137.5,4.072273790401306e-10,4.072273790401306e-10
138.0,4.322380571146396e-10,4.322380571146396e-10
138.5,4.587470728565547e-10,4.587470728565547e-10
139.0,4.868418234390829e-10,4.868418234390829e-10
139.5,5.166146589150615e-10,5.166146589150615e-10
140.0,5.48163154224338e-10,5.48163154224338e-10
140.5,5.815903956328285e-10,5.815903956328285e-10
141.0,6.170052823401786e-10,6.170052823401786e-10
141.5,6.545228440288812e-10,6.545228440288812e-10
142.0,6.942645751654909e-10,6.942645751654909e-10
142.5,7.363587869040061e-10,7.363587869040061e-10
143.0,7.809409774827301e-10,7.809409774827301e-10
143.5,8.281542220492106e-10,8.281542220492106e-10
144.0,8.78149582892911e-10,8.78149582892911e-10
144.5,9.310865411126185e-10,9.310865411126185e-10
145.0,9.871334507949553e-10,9.871334507949553e-10
145.5,1.0464680168320673e-09,1.0464680168320673e-09
146.0,1.1092777975605495e-09,1.1092777975605495e-09
146.5,1.1757607334601865e-09,1.1757607334601865e-09
147.0,1.246125703210162e-09,1.246125703210162e-09
147.5,1.3205931084620226e-09,1.3205931084620226e-09
148.0,1.3993954887532094e-09,1.3993954887532094e-09
148.5,1.4827781680524796e-09,1.4827781680524796e-09
149.0,1.5709999344987243e-09,1.5709999344987243e-09
149.5,1.6643337549685486e-09,1.6643337549685486e-09
150.0,1.7630675261845864e-09,1.7630675261845864e-09
150.5,1.867504864156895e-09,1.867504864156895e-09
151.0,1.9779659338336763e-09,1.9779659338336763e-09
151.5,2.0947883209250066e-09,2.0947883209250066e-09
152.0,2.2183279479546622e-09,2.2183279479546622e-09
152.5,2.34896003669066e-09,2.34896003669066e-09
153.0,2.4870801192046317e-09,2.4870801192046317e-09
153.5,2.6331050999142502e-09,2.6331050999142502e-09
154.0,2.7874743710712e-09,2.7874743710712e-09
154.5,2.9506509842708234e-09,2.9506509842708234e-09
155.0,3.12312288067723e-09,3.12312288067723e-09
155.5,3.3054041827813148e-09,3.3054041827813148e-09
156.0,3.4980365506375492e-09,3.4980365506375492e-09
156.5,3.7015906056593555e-09,3.7015906056593555e-09
157.0,3.9166674251931896e-09,3.9166674251931896e-09
157.5,4.14390011123671e-09,4.14390011123671e-09
158.0,4.3839554368189725e-09,4.3839554368189725e-09
158.5,4.637535573718826e-09,4.637535573718826e-09
159.0,4.9053799053631416e-09,4.9053799053631416e-09
159.5,5.1882669289183795e-09,5.1882669289183795e-09
160.0,5.487016250769148e-09,5.487016250769148e-09
160.5,5.802490679763644e-09,5.802490679763644e-09
161.0,6.135598422801392e-09,6.135598422801392e-09
161.5,6.487295387541507e-09,6.487295387541507e-09
162.0,6.858587597220804e-09,6.858587597220804e-09
162.5,7.250533722792234e-09,7.250533722792234e-09
163.0,7.664247737822383e-09,7.664247737822383e-09
163.5,8.100901701826515e-09,8.100901701826515e-09
164.0,8.561728677967793e-09,8.561728677967793e-09
164.5,9.048025791306501e-09,9.048025791306501e-09
165.0,9.561157434054128e-09,9.561157434054128e-09
165.5,1.0102558624567906e-08,1.0102558624567906e-08
166.0,1.0673738527113504e-08,1.0673738527113504e-08
166.5,1.1276284139726466e-08,1.1276284139726466e-08
167.0,1.1911864157819161e-08,1.1911864157819161e-08
167.5,1.2582233021509597e-08,1.2582233021509597e-08
168.0,1.3289235154988204e-08,1.3289235154988204e-08
168.5,1.4034809406596583e-08,1.4034809406596583e-08
169.0,1.482099369865987e-08,1.482099369865987e-08
169.5,1.5649929896499355e-08,1.5649929896499355e-08
170.0,1.6523868906452306e-08,1.6523868906452306e-08
170.5,1.7445176013140182e-08,1.7445176013140182e-08
171.0,1.8416336466658157e-08,1.8416336466658157e-08
171.5,1.9439961330808223e-08,1.9439961330808223e-08
172.0,2.0518793603963423e-08,2.0518793603963423e-08
172.5,2.1655714624635755e-08,2.1655714624635755e-08
173.0,2.2853750774321734e-08,2.2853750774321734e-08
173.5,2.4116080490725012e-08,2.4116080490725012e-08
174.0,2.544604160499451e-08,2.544604160499451e-08
174.5,2.6847139017182735e-08,2.6847139017182735e-08
175.0,2.8323052724713186e-08,2.8323052724713186e-08
175.5,2.987764621925146e-08,2.987764621925146e-08
176.0,3.15149752680089e-08,3.15149752680089e-08
176.5,3.323929709615714e-08,3.323929709615714e-08
177.0,3.5055079987714936e-08,3.5055079987714936e-08
177.5,3.696701332297078e-08,3.696701332297078e-08
178.0,3.898001807123742e-08,3.898001807123742e-08
178.5,4.109925775848966e-08,4.109925775848966e-08
179.0,4.333014993022847e-08,4.333014993022847e-08
179.5,4.567837813072354e-08,4.567837813072354e-08
180.0,4.814990442063713e-08,4.814990442063713e-08
180.5,5.075098245590741e-08,5.075098245590741e-08
181.0,5.348817115167519e-08,5.348817115167519e-08
181.5,5.636834895598722e-08,5.636834895598722e-08
182.0,5.9398728758976653e-08,5.9398728758976653e-08
182.5,6.258687346424009e-08,6.258687346424009e-08
183.0,6.594071225017651e-08,6.594071225017651e-08
183.5,6.946855755013538e-08,6.946855755013538e-08
184.0,7.317912278135546e-08,7.317912278135546e-08
184.5,7.708154085382876e-08,7.708154085382876e-08
185.0,8.118538349144053e-08,8.118538349144053e-08
185.5,8.550068139897933e-08,8.550068139897933e-08
186.0,9.00379453099058e-08,9.00379453099058e-08
186.5,9.480818795110885e-08,9.480818795110885e-08
187.0,9.982294696225834e-08,9.982294696225834e-08
187.5,1.0509430880880255e-07,1.0509430880880255e-07
188.0,1.1063493372913768e-07,1.1063493372913768e-07
188.5,1.1645808175801215e-07,1.1645808175801215e-07
189.0,1.2257763986981606e-07,1.2257763986981606e-07
189.5,1.2900815028704586e-07,1.2900815028704586e-07
190.0,1.357648400009325e-07,1.357648400009325e-07
190.5,1.428636515529769e-07,1.428636515529769e-07
191.0,1.5032127512794854e-07,1.5032127512794854e-07
191.5,1.5815518201078175e-07,1.5815518201078175e-07
192.0,1.6638365946173581e-07,1.6638365946173581e-07
192.5,1.750258470661967e-07,1.750258470661967e-07
193.0,1.8410177461755737e-07,1.8410177461755737e-07
193.5,1.9363240159375866e-07,1.9363240159375866e-07
194.0,2.0363965829027818e-07,2.0363965829027818e-07
194.5,2.1414648867463028e-07,2.1414648867463028e-07
195.0,2.2517689502980335e-07,2.2517689502980335e-07
195.5,2.3675598445648122e-07,2.3675598445648122e-07
196.0,2.48910017306413e-07,2.48910017306413e-07
196.5,2.6166645762187994e-07,2.6166645762187994e-07
197.0,2.750540256588846e-07,2.750540256588846e-07
197.5,2.891027525744411e-07,2.891027525744411e-07
198.0,3.03844037361189e-07,3.03844037361189e-07
